# Pulseq sequence file
# Created by PyPulseq

[VERSION]
major 1
minor 4
revision 2

[DEFINITIONS]
AdcRasterTime 1e-07 
BlockDurationRaster 1e-05 
FOV 0.4 0.2 0.266 
GradientRasterTime 1e-05 
Name mese 
RadiofrequencyRasterTime 1e-06 
TotalDuration 640 

# Format of blocks:
# NUM DUR RF  GX  GY  GZ  ADC  EXT
[BLOCKS]
    1   0   0   0   0   0  0  1
    2  25   0   0   0   1  0  0
    3 270   1   0   0   2  0  0
    4 305   0   4   0   3  0  0
    5 220   2   0   0   5  0  0
    6 119   0   7   8   6  0  0
    7 642   0   9   0   0  1  0
    8 119   0  11  12  10  0  0
    9   0   0   0   0   0  0  2
   10 220   2   0   0   5  0  0
   11 119   0   7   8   6  0  0
   12 642   0   9   0   0  1  0
   13 119   0  11  12  10  0  0
   14   0   0   0   0   0  0  2
   15 220   2   0   0   5  0  0
   16 119   0   7   8   6  0  0
   17 642   0   9   0   0  1  0
   18 119   0  11  12  10  0  0
   19   0   0   0   0   0  0  2
   20 220   2   0   0   5  0  0
   21 119   0   7   8   6  0  0
   22 642   0   9   0   0  1  0
   23 119   0  11  12  10  0  0
   24   0   0   0   0   0  0  2
   25 220   2   0   0   5  0  0
   26 119   0   7   8   6  0  0
   27 642   0   9   0   0  1  0
   28 119   0  11  12  10  0  0
   29   0   0   0   0   0  0  2
   30 220   2   0   0   5  0  0
   31 119   0   7   8   6  0  0
   32 642   0   9   0   0  1  0
   33 119   0  11  12  10  0  0
   34   0   0   0   0   0  0  2
   35 220   2   0   0   5  0  0
   36 119   0   7   8   6  0  0
   37 642   0   9   0   0  1  0
   38 119   0  11  12  10  0  0
   39   0   0   0   0   0  0  2
   40 220   2   0   0   5  0  0
   41 119   0   7   8   6  0  0
   42 642   0   9   0   0  1  0
   43 119   0  11  12  10  0  0
   44   0   0   0   0   0  0  2
   45 220   2   0   0   5  0  0
   46 119   0   7   8   6  0  0
   47 642   0   9   0   0  1  0
   48 119   0  11  12  10  0  0
   49   0   0   0   0   0  0  2
   50 220   2   0   0   5  0  0
   51 119   0   7   8   6  0  0
   52 642   0   9   0   0  1  0
   53 119   0  11  12  10  0  0
   54   0   0   0   0   0  0  2
   55 220   2   0   0   5  0  0
   56 119   0   7   8   6  0  0
   57 642   0   9   0   0  1  0
   58 119   0  11  12  10  0  0
   59   0   0   0   0   0  0  2
   60 220   2   0   0   5  0  0
   61 119   0   7   8   6  0  0
   62 642   0   9   0   0  1  0
   63 119   0  11  12  10  0  0
   64   0   0   0   0   0  0  2
   65 220   2   0   0   5  0  0
   66 119   0   7   8   6  0  0
   67 642   0   9   0   0  1  0
   68 119   0  11  12  10  0  0
   69   0   0   0   0   0  0  2
   70 220   2   0   0   5  0  0
   71 119   0   7   8   6  0  0
   72 642   0   9   0   0  1  0
   73 119   0  11  12  10  0  0
   74   0   0   0   0   0  0  2
   75 220   2   0   0   5  0  0
   76 119   0   7   8   6  0  0
   77 642   0   9   0   0  1  0
   78 119   0  11  12  10  0  0
   79   0   0   0   0   0  0  2
   80 220   2   0   0   5  0  0
   81 119   0   7   8   6  0  0
   82 642   0   9   0   0  1  0
   83 119   0  11  12  10  0  0
   84   0   0   0   0   0  0  2
   85 220   2   0   0   5  0  0
   86 119   0   7   8   6  0  0
   87 642   0   9   0   0  1  0
   88 119   0  11  12  10  0  0
   89   0   0   0   0   0  0  3
   90 220   0   0   0   5  0  0
   91 119   0   0   0   6  0  0
   92 42861   0   0   0   0  0  0
   93   0   0   0   0   0  0  4
   94  25   0   0   0   1  0  0
   95 270   3   0   0   2  0  0
   96 305   0   4   0   3  0  0
   97 220   4   0   0   5  0  0
   98 119   0   7   8   6  0  0
   99 642   0   9   0   0  1  0
  100 119   0  11  12  10  0  0
  101   0   0   0   0   0  0  2
  102 220   4   0   0   5  0  0
  103 119   0   7   8   6  0  0
  104 642   0   9   0   0  1  0
  105 119   0  11  12  10  0  0
  106   0   0   0   0   0  0  2
  107 220   4   0   0   5  0  0
  108 119   0   7   8   6  0  0
  109 642   0   9   0   0  1  0
  110 119   0  11  12  10  0  0
  111   0   0   0   0   0  0  2
  112 220   4   0   0   5  0  0
  113 119   0   7   8   6  0  0
  114 642   0   9   0   0  1  0
  115 119   0  11  12  10  0  0
  116   0   0   0   0   0  0  2
  117 220   4   0   0   5  0  0
  118 119   0   7   8   6  0  0
  119 642   0   9   0   0  1  0
  120 119   0  11  12  10  0  0
  121   0   0   0   0   0  0  2
  122 220   4   0   0   5  0  0
  123 119   0   7   8   6  0  0
  124 642   0   9   0   0  1  0
  125 119   0  11  12  10  0  0
  126   0   0   0   0   0  0  2
  127 220   4   0   0   5  0  0
  128 119   0   7   8   6  0  0
  129 642   0   9   0   0  1  0
  130 119   0  11  12  10  0  0
  131   0   0   0   0   0  0  2
  132 220   4   0   0   5  0  0
  133 119   0   7   8   6  0  0
  134 642   0   9   0   0  1  0
  135 119   0  11  12  10  0  0
  136   0   0   0   0   0  0  2
  137 220   4   0   0   5  0  0
  138 119   0   7   8   6  0  0
  139 642   0   9   0   0  1  0
  140 119   0  11  12  10  0  0
  141   0   0   0   0   0  0  2
  142 220   4   0   0   5  0  0
  143 119   0   7   8   6  0  0
  144 642   0   9   0   0  1  0
  145 119   0  11  12  10  0  0
  146   0   0   0   0   0  0  2
  147 220   4   0   0   5  0  0
  148 119   0   7   8   6  0  0
  149 642   0   9   0   0  1  0
  150 119   0  11  12  10  0  0
  151   0   0   0   0   0  0  2
  152 220   4   0   0   5  0  0
  153 119   0   7   8   6  0  0
  154 642   0   9   0   0  1  0
  155 119   0  11  12  10  0  0
  156   0   0   0   0   0  0  2
  157 220   4   0   0   5  0  0
  158 119   0   7   8   6  0  0
  159 642   0   9   0   0  1  0
  160 119   0  11  12  10  0  0
  161   0   0   0   0   0  0  2
  162 220   4   0   0   5  0  0
  163 119   0   7   8   6  0  0
  164 642   0   9   0   0  1  0
  165 119   0  11  12  10  0  0
  166   0   0   0   0   0  0  2
  167 220   4   0   0   5  0  0
  168 119   0   7   8   6  0  0
  169 642   0   9   0   0  1  0
  170 119   0  11  12  10  0  0
  171   0   0   0   0   0  0  2
  172 220   4   0   0   5  0  0
  173 119   0   7   8   6  0  0
  174 642   0   9   0   0  1  0
  175 119   0  11  12  10  0  0
  176   0   0   0   0   0  0  2
  177 220   4   0   0   5  0  0
  178 119   0   7   8   6  0  0
  179 642   0   9   0   0  1  0
  180 119   0  11  12  10  0  0
  181   0   0   0   0   0  0  3
  182 220   0   0   0   5  0  0
  183 119   0   0   0   6  0  0
  184 42861   0   0   0   0  0  0
  185   0   0   0   0   0  0  4
  186  25   0   0   0   1  0  0
  187 270   5   0   0   2  0  0
  188 305   0   4   0   3  0  0
  189 220   6   0   0   5  0  0
  190 119   0   7   8   6  0  0
  191 642   0   9   0   0  1  0
  192 119   0  11  12  10  0  0
  193   0   0   0   0   0  0  2
  194 220   6   0   0   5  0  0
  195 119   0   7   8   6  0  0
  196 642   0   9   0   0  1  0
  197 119   0  11  12  10  0  0
  198   0   0   0   0   0  0  2
  199 220   6   0   0   5  0  0
  200 119   0   7   8   6  0  0
  201 642   0   9   0   0  1  0
  202 119   0  11  12  10  0  0
  203   0   0   0   0   0  0  2
  204 220   6   0   0   5  0  0
  205 119   0   7   8   6  0  0
  206 642   0   9   0   0  1  0
  207 119   0  11  12  10  0  0
  208   0   0   0   0   0  0  2
  209 220   6   0   0   5  0  0
  210 119   0   7   8   6  0  0
  211 642   0   9   0   0  1  0
  212 119   0  11  12  10  0  0
  213   0   0   0   0   0  0  2
  214 220   6   0   0   5  0  0
  215 119   0   7   8   6  0  0
  216 642   0   9   0   0  1  0
  217 119   0  11  12  10  0  0
  218   0   0   0   0   0  0  2
  219 220   6   0   0   5  0  0
  220 119   0   7   8   6  0  0
  221 642   0   9   0   0  1  0
  222 119   0  11  12  10  0  0
  223   0   0   0   0   0  0  2
  224 220   6   0   0   5  0  0
  225 119   0   7   8   6  0  0
  226 642   0   9   0   0  1  0
  227 119   0  11  12  10  0  0
  228   0   0   0   0   0  0  2
  229 220   6   0   0   5  0  0
  230 119   0   7   8   6  0  0
  231 642   0   9   0   0  1  0
  232 119   0  11  12  10  0  0
  233   0   0   0   0   0  0  2
  234 220   6   0   0   5  0  0
  235 119   0   7   8   6  0  0
  236 642   0   9   0   0  1  0
  237 119   0  11  12  10  0  0
  238   0   0   0   0   0  0  2
  239 220   6   0   0   5  0  0
  240 119   0   7   8   6  0  0
  241 642   0   9   0   0  1  0
  242 119   0  11  12  10  0  0
  243   0   0   0   0   0  0  2
  244 220   6   0   0   5  0  0
  245 119   0   7   8   6  0  0
  246 642   0   9   0   0  1  0
  247 119   0  11  12  10  0  0
  248   0   0   0   0   0  0  2
  249 220   6   0   0   5  0  0
  250 119   0   7   8   6  0  0
  251 642   0   9   0   0  1  0
  252 119   0  11  12  10  0  0
  253   0   0   0   0   0  0  2
  254 220   6   0   0   5  0  0
  255 119   0   7   8   6  0  0
  256 642   0   9   0   0  1  0
  257 119   0  11  12  10  0  0
  258   0   0   0   0   0  0  2
  259 220   6   0   0   5  0  0
  260 119   0   7   8   6  0  0
  261 642   0   9   0   0  1  0
  262 119   0  11  12  10  0  0
  263   0   0   0   0   0  0  2
  264 220   6   0   0   5  0  0
  265 119   0   7   8   6  0  0
  266 642   0   9   0   0  1  0
  267 119   0  11  12  10  0  0
  268   0   0   0   0   0  0  2
  269 220   6   0   0   5  0  0
  270 119   0   7   8   6  0  0
  271 642   0   9   0   0  1  0
  272 119   0  11  12  10  0  0
  273   0   0   0   0   0  0  3
  274 220   0   0   0   5  0  0
  275 119   0   0   0   6  0  0
  276 42861   0   0   0   0  0  0
  277   0   0   0   0   0  0  4
  278  25   0   0   0   1  0  0
  279 270   7   0   0   2  0  0
  280 305   0   4   0   3  0  0
  281 220   8   0   0   5  0  0
  282 119   0   7   8   6  0  0
  283 642   0   9   0   0  1  0
  284 119   0  11  12  10  0  0
  285   0   0   0   0   0  0  2
  286 220   8   0   0   5  0  0
  287 119   0   7   8   6  0  0
  288 642   0   9   0   0  1  0
  289 119   0  11  12  10  0  0
  290   0   0   0   0   0  0  2
  291 220   8   0   0   5  0  0
  292 119   0   7   8   6  0  0
  293 642   0   9   0   0  1  0
  294 119   0  11  12  10  0  0
  295   0   0   0   0   0  0  2
  296 220   8   0   0   5  0  0
  297 119   0   7   8   6  0  0
  298 642   0   9   0   0  1  0
  299 119   0  11  12  10  0  0
  300   0   0   0   0   0  0  2
  301 220   8   0   0   5  0  0
  302 119   0   7   8   6  0  0
[RF]
1       245.34 5 6 0 100 -14800 117.81
2      613.349 10 11 0 100 -14800 92.9911
3       245.34 5 6 0 100 -10571.4 84.5986
4      613.349 10 11 0 100 -10571.4 66.4222
5       245.34 5 6 0 100 -6342.86 51.3875
6      613.349 10 11 0 100 -6342.86 39.8533
7       245.34 5 6 0 100 -2114.29 18.1764
8      613.349 10 11 0 100 -2114.29 13.2844
9       245.34 5 6 0 100 2114.29 -15.0348
10      613.349 10 11 0 100 2114.29 -13.2844
11       245.34 5 6 0 100 6342.86 -48.2459
12      613.349 10 11 0 100 6342.86 -39.8533
13       245.34 5 6 0 100 10571.4 -81.457
14      613.349 10 11 0 100 10571.4 -66.4222
15       245.34 5 6 0 100 14800 -114.668
16      613.349 10 11 0 100 14800 -92.9911

# Format of arbitrary gradients:
#   time_shape_id of 0 means default timing (stepping with grad_raster starting at 1/2 of grad_raster)
# id amplitude amp_shape_id time_shape_id delay
# ..      Hz/m       ..         ..          us
[GRADIENTS]
1       114286 1 2 0
2       114286 3 4 0
3       114286 7 8 0
5       114286 3 9 0
6       268997 12 13 0
7       707364 14 13 0
9      99688.5 3 15 0
10       268997 16 13 0
11       707364 17 13 0

# Format of trapezoid gradients:
# id amplitude rise flat fall delay
# ..      Hz/m   us   us   us    us
[TRAP]
 4       356208 250 2550 250   0
 8       335106 250  690 250   0
12      -335106 250  690 250   0
13       329787 250  690 250   0
14      -329787 250  690 250   0
15       324468 250  690 250   0
16      -324468 250  690 250   0
17       319149 250  690 250   0
18      -319149 250  690 250   0
19       313830 250  690 250   0
20      -313830 250  690 250   0
21       308511 250  690 250   0
22      -308511 250  690 250   0
23       303191 250  690 250   0
24      -303191 250  690 250   0
25       297872 250  690 250   0
26      -297872 250  690 250   0
27       292553 250  690 250   0
28      -292553 250  690 250   0
29       287234 250  690 250   0
30      -287234 250  690 250   0
31       281915 250  690 250   0
32      -281915 250  690 250   0
33       276596 250  690 250   0
34      -276596 250  690 250   0
35       271277 250  690 250   0
36      -271277 250  690 250   0
37       265957 250  690 250   0
38      -265957 250  690 250   0
39       260638 250  690 250   0
40      -260638 250  690 250   0
41       255319 250  690 250   0
42      -255319 250  690 250   0
43       250000 250  690 250   0
44      -250000 250  690 250   0
45       244681 250  690 250   0
46      -244681 250  690 250   0
47       239362 250  690 250   0
48      -239362 250  690 250   0
49       234043 250  690 250   0
50      -234043 250  690 250   0
51       228723 250  690 250   0
52      -228723 250  690 250   0
53       223404 250  690 250   0
54      -223404 250  690 250   0
55       218085 250  690 250   0
56      -218085 250  690 250   0
57       212766 250  690 250   0
58      -212766 250  690 250   0
59       207447 250  690 250   0
60      -207447 250  690 250   0
61       202128 250  690 250   0
62      -202128 250  690 250   0
63       196809 250  690 250   0
64      -196809 250  690 250   0
65       191489 250  690 250   0
66      -191489 250  690 250   0
67       186170 250  690 250   0
68      -186170 250  690 250   0
69       180851 250  690 250   0
70      -180851 250  690 250   0
71       175532 250  690 250   0
72      -175532 250  690 250   0
73       170213 250  690 250   0
74      -170213 250  690 250   0
75       164894 250  690 250   0
76      -164894 250  690 250   0
77       159574 250  690 250   0
78      -159574 250  690 250   0
79       154255 250  690 250   0
80      -154255 250  690 250   0
81       148936 250  690 250   0
82      -148936 250  690 250   0
83       143617 250  690 250   0
84      -143617 250  690 250   0
85       138298 250  690 250   0
86      -138298 250  690 250   0
87       132979 250  690 250   0
88      -132979 250  690 250   0
89       127660 250  690 250   0
90      -127660 250  690 250   0
91       122340 250  690 250   0
92      -122340 250  690 250   0
93       117021 250  690 250   0
94      -117021 250  690 250   0
95       111702 250  690 250   0
96      -111702 250  690 250   0
97       106383 250  690 250   0
98      -106383 250  690 250   0
99       101064 250  690 250   0
100      -101064 250  690 250   0
101      95744.7 250  690 250   0
102     -95744.7 250  690 250   0
103      90425.5 250  690 250   0
104     -90425.5 250  690 250   0
105      85106.4 250  690 250   0
106     -85106.4 250  690 250   0
107      79787.2 250  690 250   0
108     -79787.2 250  690 250   0
109      74468.1 250  690 250   0
110     -74468.1 250  690 250   0
111      69148.9 250  690 250   0
112     -69148.9 250  690 250   0
113      63829.8 250  690 250   0
114     -63829.8 250  690 250   0
115      58510.6 250  690 250   0
116     -58510.6 250  690 250   0
117      53191.5 250  690 250   0
118     -53191.5 250  690 250   0
119      47872.3 250  690 250   0
120     -47872.3 250  690 250   0
121      42553.2 250  690 250   0
122     -42553.2 250  690 250   0
123        37234 250  690 250   0
124       -37234 250  690 250   0
125      31914.9 250  690 250   0
126     -31914.9 250  690 250   0
127      26595.7 250  690 250   0
128     -26595.7 250  690 250   0
129      21276.6 250  690 250   0
130     -21276.6 250  690 250   0
131      15957.4 250  690 250   0
132     -15957.4 250  690 250   0
133      10638.3 250  690 250   0
134     -10638.3 250  690 250   0
135      5319.15 250  690 250   0
136     -5319.15 250  690 250   0
137            0 250  690 250   0
138      -340426 250  690 250   0
139       340426 250  690 250   0

# Format of ADC events:
# id num dwell delay freq phase
# ..  ..    ns    us   Hz   rad
[ADC]
1 256 25000 10 0 0

# Format of extension lists:
# id type ref next_id
# next_id of 0 terminates the list
# Extension list is followed by extension specifications
[EXTENSIONS]
1 1 1 0
2 2 1 0
3 1 2 0
4 2 2 0
5 1 3 0
6 2 3 5

# Extension specification for setting labels:
# id set labelstring
extension LABELSET 1
1 1 REV
2 0 ECO
3 0 SET

# Extension specification for setting labels:
# id set labelstring
extension LABELINC 2
1 1 ECO
2 1 SET
3 1 LIN

# Sequence Shapes
[SHAPES]

shape_id 1
num_samples 2
0
1

shape_id 2
num_samples 2
0
25

shape_id 3
num_samples 2
1
1

shape_id 4
num_samples 2
0
270

shape_id 5
num_samples 2500
1.57976903e-10
4.26877929e-09
1.97785841e-08
5.43154601e-08
1.15531373e-07
2.11102043e-07
3.48726795e-07
5.3612842e-07
7.81053021e-07
1.09126987e-06
1.47457127e-06
1.93877238e-06
2.49171109e-06
3.14124786e-06
3.89526559e-06
4.76166943e-06
5.74838666e-06
6.86336653e-06
8.1145801e-06
9.5100201e-06
1.10577008e-05
1.27656577e-05
1.46419476e-05
1.66946484e-05
1.89318587e-05
2.1361698e-05
2.39923064e-05
2.68318441e-05
2.98884919e-05
3.31704505e-05
3.66859406e-05
4.04432027e-05
4.44504968e-05
4.87161024e-05
5.32483183e-05
5.80554625e-05
6.31458718e-05
6.85279018e-05
7.42099268e-05
8.02003396e-05
8.65075513e-05
9.31399908e-05
0.000100106105
0.00010741436
0.000115073237
0.000123091237
0.000131476876
0.00014023869
0.000149385229
0.000158925062
0.000168866773
0.000179218963
0.00018999025
0.000201189267
0.000212824664
0.000224905105
0.000237439271
0.000250435859
0.00026390358
0.000277851159
0.000292287337
0.000307220872
0.000322660532
0.000338615103
0.000355093383
0.000372104185
0.000389656335
0.000407758673
0.000426420053
0.000445649342
0.000465455418
0.000485847176
0.000506833519
0.000528423367
0.000550625648
0.000573449305
0.000596903293
0.000620996576
0.000645738134
0.000671136954
0.000697202037
0.000723942394
0.000751367047
0.000779485028
0.00080830538
0.000837837157
0.000868089422
0.000899071249
0.000930791719
0.000963259926
0.000996484972
0.00103047597
0.00106524203
0.00110079229
0.00113713589
0.00117428196
0.00121223967
0.00125101818
0.00129062665
0.00133107426
0.0013723702
0.00141452365
0.00145754382
0.00150143991
0.00154622113
0.0015918967
0.00163847585
0.0016859678
0.0017343818
0.00178372708
0.00183401289
0.00188524848
0.00193744311
0.00199060605
0.00204474656
0.0020998739
0.00215599737
0.00221312623
0.00227126977
0.00233043727
0.00239063804
0.00245188135
0.00251417651
0.00257753282
0.00264195957
0.00270746608
0.00277406165
0.00284175558
0.0029105572
0.0029804758
0.0030515207
0.00312370123
0.00319702669
0.00327150639
0.00334714967
0.00342396582
0.00350196418
0.00358115406
0.00366154477
0.00374314563
0.00382596596
0.00391001507
0.00399530227
0.00408183689
0.00416962822
0.00425868559
0.00434901829
0.00444063563
0.00453354692
0.00462776145
0.00472328852
0.00482013743
0.00491831748
0.00501783793
0.00511870809
0.00522093723
0.00532453464
0.00542950957
0.0055358713
0.0056436291
0.00575279222
0.00586336991
0.00597537143
0.00608880602
0.00620368291
0.00632001134
0.00643780053
0.00655705969
0.00667779806
0.00680002481
0.00692374917
0.00704898031
0.00717572743
0.00730399969
0.00743380628
0.00756515634
0.00769805903
0.0078325235
0.00796855888
0.0081061743
0.00824537888
0.00838618172
0.00852859192
0.00867261858
0.00881827076
0.00896555755
0.009114488
0.00926507116
0.00941731606
0.00957123173
0.0097268272
0.00988411145
0.0100430935
0.0102037823
0.0103661868
0.0105303161
0.0106961789
0.0108637844
0.0110331413
0.0112042586
0.0113771452
0.01155181
0.0117282617
0.0119065094
0.0120865618
0.0122684277
0.0124521159
0.0126376353
0.0128249947
0.0130142027
0.0132052681
0.0133981997
0.0135930061
0.0137896962
0.0139882785
0.0141887617
0.0143911545
0.0145954655
0.0148017034
0.0150098767
0.015219994
0.0154320639
0.0156460949
0.0158620956
0.0160800744
0.0163000399
0.0165220005
0.0167459647
0.0169719409
0.0171999376
0.0174299631
0.0176620257
0.017896134
0.0181322962
0.0183705205
0.0186108154
0.0188531891
0.0190976498
0.0193442058
0.0195928652
0.0198436364
0.0200965273
0.0203515463
0.0206087014
0.0208680006
0.0211294522
0.0213930641
0.0216588443
0.021926801
0.022196942
0.0224692753
0.0227438089
0.0230205507
0.0232995085
0.0235806903
0.0238641038
0.0241497569
0.0244376574
0.0247278131
0.0250202316
0.0253149207
0.0256118881
0.0259111415
0.0262126884
0.0265165365
0.0268226934
0.0271311666
0.0274419637
0.0277550921
0.0280705594
0.0283883729
0.0287085401
0.0290310684
0.0293559652
0.0296832377
0.0300128933
0.0303449393
0.0306793828
0.0310162312
0.0313554916
0.0316971712
0.0320412771
0.0323878164
0.0327367961
0.0330882233
0.0334421051
0.0337984483
0.03415726
0.034518547
0.0348823162
0.0352485746
0.0356173288
0.0359885857
0.0363623521
0.0367386346
0.03711744
0.037498775
0.037882646
0.0382690598
0.038658023
0.0390495419
0.0394436232
0.0398402732
0.0402394984
0.0406413053
0.0410457001
0.0414526891
0.0418622787
0.0422744752
0.0426892846
0.0431067133
0.0435267674
0.0439494529
0.0443747759
0.0448027426
0.0452333589
0.0456666307
0.046102564
0.0465411646
0.0469824386
0.0474263916
0.0478730294
0.0483223579
0.0487743826
0.0492291093
0.0496865437
0.0501466912
0.0506095575
0.0510751481
0.0515434685
0.052014524
0.0524883202
0.0529648624
0.0534441558
0.0539262058
0.0544110177
0.0548985966
0.0553889477
0.0558820761
0.0563779869
0.0568766852
0.057378176
0.0578824642
0.0583895548
0.0588994526
0.0594121625
0.0599276893
0.0604460378
0.0609672126
0.0614912184
0.06201806
0.0625477418
0.0630802684
0.0636156444
0.0641538741
0.0646949621
0.0652389127
0.0657857302
0.0663354189
0.0668879831
0.0674434271
0.0680017548
0.0685629706
0.0691270784
0.0696940823
0.0702639862
0.0708367942
0.0714125101
0.0719911378
0.072572681
0.0731571436
0.0737445293
0.0743348418
0.0749280846
0.0755242614
0.0761233756
0.0767254309
0.0773304306
0.0779383782
0.078549277
0.0791631303
0.0797799414
0.0803997135
0.0810224498
0.0816481533
0.0822768272
0.0829084746
0.0835430983
0.0841807013
0.0848212866
0.0854648569
0.086111415
0.0867609638
0.0874135058
0.0880690438
0.0887275803
0.089389118
0.0900536592
0.0907212065
0.0913917622
0.0920653288
0.0927419086
0.0934215037
0.0941041165
0.0947897491
0.0954784035
0.0961700819
0.0968647863
0.0975625187
0.0982632809
0.0989670749
0.0996739024
0.100383765
0.101096665
0.101812604
0.102531582
0.103253603
0.103978667
0.104706776
0.105437932
0.106172135
0.106909387
0.107649689
0.108393042
0.109139449
0.109888909
0.110641423
0.111396994
0.112155621
0.112917305
0.113682049
0.114449851
0.115220714
0.115994637
0.116771621
0.117551668
0.118334777
0.119120949
0.119910184
0.120702483
0.121497847
0.122296274
0.123097766
0.123902324
0.124709945
0.125520632
0.126334384
0.127151201
0.127971083
0.128794029
0.12962004
0.130449115
0.131281254
0.132116456
0.132954722
0.13379605
0.134640441
0.135487893
0.136338406
0.137191979
0.138048612
0.138908303
0.139771052
0.140636859
0.141505721
0.142377638
0.14325261
0.144130634
0.145011709
0.145895836
0.146783011
0.147673234
0.148566504
0.149462818
0.150362176
0.151264576
0.152170016
0.153078495
0.15399001
0.154904561
0.155822145
0.156742761
0.157666406
0.158593079
0.159522777
0.160455498
0.16139124
0.162330002
0.16327178
0.164216572
0.165164376
0.16611519
0.167069011
0.168025837
0.168985664
0.16994849
0.170914313
0.17188313
0.172854938
0.173829733
0.174807514
0.175788277
0.176772018
0.177758736
0.178748427
0.179741087
0.180736713
0.181735302
0.182736851
0.183741356
0.184748814
0.185759221
0.186772573
0.187788867
0.188808099
0.189830265
0.190855362
0.191883385
0.192914331
0.193948196
0.194984976
0.196024665
0.197067262
0.19811276
0.199161156
0.200212446
0.201266624
0.202323688
0.203383631
0.20444645
0.20551214
0.206580697
0.207652115
0.20872639
0.209803517
0.210883491
0.211966307
0.21305196
0.214140445
0.215231758
0.216325892
0.217422842
0.218522604
0.219625172
0.220730541
0.221838705
0.222949658
0.224063395
0.225179911
0.2262992
0.227421255
0.228546072
0.229673645
0.230803967
0.231937032
0.233072836
0.23421137
0.235352631
0.23649661
0.237643303
0.238792702
0.239944802
0.241099596
0.242257078
0.24341724
0.244580078
0.245745583
0.24691375
0.248084571
0.24925804
0.25043415
0.251612895
0.252794266
0.253978258
0.255164863
0.256354074
0.257545884
0.258740286
0.259937272
0.261136836
0.262338969
0.263543665
0.264750916
0.265960714
0.267173052
0.268387922
0.269605317
0.270825228
0.272047649
0.273272571
0.274499986
0.275729886
0.276962263
0.27819711
0.279434418
0.280674179
0.281916385
0.283161027
0.284408097
0.285657587
0.286909489
0.288163793
0.289420492
0.290679576
0.291941038
0.293204868
0.294471058
0.295739599
0.297010482
0.298283698
0.299559238
0.300837094
0.302117256
0.303399714
0.304684461
0.305971487
0.307260782
0.308552338
0.309846144
0.311142192
0.312440472
0.313740974
0.315043689
0.316348608
0.31765572
0.318965016
0.320276487
0.321590122
0.322905911
0.324223845
0.325543914
0.326866108
0.328190416
0.329516829
0.330845337
0.332175928
0.333508594
0.334843323
0.336180106
0.337518932
0.33885979
0.34020267
0.341547562
0.342894455
0.344243338
0.345594201
0.346947032
0.348301822
0.349658559
0.351017232
0.352377831
0.353740345
0.355104762
0.356471072
0.357839263
0.359209324
0.360581245
0.361955013
0.363330618
0.364708049
0.366087293
0.367468339
0.368851177
0.370235794
0.371622179
0.37301032
0.374400206
0.375791826
0.377185166
0.378580216
0.379976963
0.381375397
0.382775504
0.384177274
0.385580693
0.38698575
0.388392434
0.389800731
0.391210629
0.392622117
0.394035182
0.395449812
0.396865995
0.398283717
0.399702968
0.401123734
0.402546002
0.403969761
0.405394997
0.406821699
0.408249852
0.409679446
0.411110466
0.412542901
0.413976737
0.415411961
0.416848561
0.418286524
0.419725836
0.421166485
0.422608457
0.42405174
0.42549632
0.426942185
0.42838932
0.429837713
0.431287351
0.432738219
0.434190306
0.435643596
0.437098078
0.438553737
0.44001056
0.441468533
0.442927643
0.444387876
0.445849219
0.447311658
0.448775178
0.450239767
0.451705411
0.453172095
0.454639806
0.45610853
0.457578254
0.459048962
0.460520641
0.461993277
0.463466856
0.464941364
0.466416787
0.46789311
0.46937032
0.470848401
0.472327341
0.473807124
0.475287736
0.476769164
0.478251391
0.479734405
0.48121819
0.482702732
0.484188017
0.48567403
0.487160757
0.488648182
0.490136291
0.49162507
0.493114504
0.494604578
0.496095278
0.497586588
0.499078494
0.50057098
0.502064033
0.503557637
0.505051778
0.506546439
0.508041607
0.509537267
0.511033402
0.512529999
0.514027042
0.515524517
0.517022407
0.518520698
0.520019374
0.521518421
0.523017824
0.524517566
0.526017632
0.527518008
0.529018678
0.530519627
0.532020839
0.533522299
0.535023991
0.5365259
0.538028011
0.539530308
0.541032775
0.542535397
0.544038159
0.545541044
0.547044038
0.548547125
0.550050288
0.551553513
0.553056783
0.554560083
0.556063398
0.557566711
0.559070007
0.56057327
0.562076484
0.563579633
0.565082702
0.566585674
0.568088535
0.569591267
0.571093855
0.572596283
0.574098536
0.575600597
0.577102449
0.578604079
0.580105468
0.581606602
0.583107464
0.584608038
0.586108308
0.587608258
0.589107872
0.590607134
0.592106027
0.593604537
0.595102645
0.596600337
0.598097596
0.599594406
0.601090751
0.602586614
0.60408198
0.605576831
0.607071153
0.608564928
0.61005814
0.611550774
0.613042812
0.614534239
0.616025037
0.617515192
0.619004686
0.620493504
0.621981628
0.623469043
0.624955733
0.62644168
0.627926868
0.629411281
0.630894904
0.632377718
0.633859709
0.635340858
0.636821151
0.638300571
0.639779101
0.641256725
0.642733426
0.644209188
0.645683995
0.647157829
0.648630676
0.650102517
0.651573337
0.65304312
0.654511848
0.655979506
0.657446076
0.658911543
0.66037589
0.6618391
0.663301158
0.664762045
0.666221747
0.667680247
0.669137527
0.670593572
0.672048366
0.673501891
0.674954131
0.67640507
0.677854691
0.679302978
0.680749914
0.682195483
0.683639668
0.685082454
0.686523822
0.687963758
0.689402245
0.690839265
0.692274803
0.693708843
0.695141367
0.69657236
0.698001804
0.699429684
0.700855983
0.702280685
0.703703774
0.705125232
0.706545043
0.707963192
0.709379662
0.710794436
0.712207498
0.713618831
0.71502842
0.716436248
0.717842299
0.719246556
0.720649004
0.722049625
0.723448403
0.724845323
0.726240368
0.727633521
0.729024767
0.730414089
0.731801471
0.733186897
0.73457035
0.735951815
0.737331275
0.738708714
0.740084116
0.741457465
0.742828744
0.744197938
0.745565031
0.746930006
0.748292847
0.749653538
0.751012064
0.752368408
0.753722554
0.755074487
0.75642419
0.757771647
0.759116842
0.76045976
0.761800384
0.7631387
0.76447469
0.765808338
0.767139631
0.76846855
0.769795081
0.771119207
0.772440914
0.773760185
0.775077005
0.776391357
0.777703226
0.779012597
0.780319454
0.781623782
0.782925564
0.784224785
0.785521429
0.786815482
0.788106927
0.78939575
0.790681934
0.791965464
0.793246325
0.794524501
0.795799978
0.797072739
0.79834277
0.799610054
0.800874578
0.802136325
0.803395281
0.804651429
0.805904756
0.807155246
0.808402883
0.809647654
0.810889542
0.812128532
0.813364611
0.814597762
0.815827971
0.817055222
0.818279502
0.819500795
0.820719086
0.82193436
0.823146603
0.8243558
0.825561937
0.826764998
0.827964969
0.829161835
0.830355582
0.831546196
0.832733661
0.833917963
0.835099088
0.836277021
0.837451748
0.838623255
0.839791526
0.840956549
0.842118309
0.843276791
0.844431981
0.845583865
0.846732429
0.847877659
0.849019541
0.850158061
0.851293204
0.852424958
0.853553307
0.854678239
0.855799738
0.856917793
0.858032387
0.859143509
0.860251144
0.861355279
0.8624559
0.863552993
0.864646544
0.865736542
0.866822971
0.867905818
0.868985071
0.870060716
0.871132738
0.872201126
0.873265866
0.874326945
0.87538435
0.876438066
0.877488083
0.878534385
0.879576961
0.880615798
0.881650882
0.882682201
0.883709742
0.884733492
0.885753438
0.886769568
0.88778187
0.888790329
0.889794935
0.890795674
0.891792534
0.892785502
0.893774567
0.894759716
0.895740935
0.896718215
0.897691541
0.898660902
0.899626286
0.900587681
0.901545074
0.902498454
0.903447809
0.904393127
0.905334396
0.906271604
0.90720474
0.908133792
0.909058748
0.909979596
0.910896326
0.911808925
0.912717383
0.913621687
0.914521826
0.91541779
0.916309567
0.917197145
0.918080513
0.918959661
0.919834577
0.920705251
0.921571671
0.922433826
0.923291706
0.9241453
0.924994596
0.925839585
0.926680256
0.927516597
0.9283486
0.929176252
0.929999544
0.930818465
0.931633005
0.932443153
0.9332489
0.934050235
0.934847148
0.935639629
0.936427667
